
Frequency	dB	Unweighted
20.290906698750476	56.5
20.586044732869844	56.6
20.885475648548283	56.6
21.49746679841394	56.7
22.12739065777668	56.8
22.449240966187475	56.9
22.77577269513385	56.9
23.107053937445478	57.0
23.44315377638505	57.1
23.784142300054445	57.1
24.130090616010463	57.2
24.481070866093134	57.3
24.837156241469714	57.4
25.56494047120865	57.5
25.936791093020236	57.6
26.69679708340074	57.7
27.47907294916184	57.9
28.284271247461966	58.0
28.695675446220072	58.2
29.11306365684382	58.3
29.536522918790062	58.4
29.966141537533712	58.6
30.402009102982383	58.7
30.844216508158908	58.9
31.29285596815558	59.1
31.74802103936409	59.3
32.67830906482211	59.6
33.63585661014871	60.0
34.62146244024586	60.3
35.12504320746613	60.4
35.635948725613716	60.6
36.15428553564419	60.7
36.68016172818701	60.7
37.21368696608603	60.8
37.754972507267915	60.9
38.30413122794313	60.9
38.86127764614443	60.9
39.4265279456077	61.0
40.000000000000206	61.0
40.58181339750116	61.0
41.77095129709678	60.9
42.37852377437204	60.9
42.9949335968281	60.9
43.62030930661056	60.8
44.25478131555359	60.8
44.89848193237519	60.8
45.55154539026795	60.7
46.21410787489121	60.7
46.88630755277036	60.6
47.56828460010916	60.6
48.962141732186545	60.6
49.674312482939705	60.6
50.39684199579528	60.6
51.129880942417586	60.6
51.873582186040764	60.6
52.628100813345895	60.6
53.393594166801776	60.6
54.17022187747612	60.6
54.95814589832399	60.6
55.75753053796041	60.6
57.39135089244048	60.5
58.226127313687975	60.5
59.073045837580466	60.4
59.932283075067765	60.4
60.804018205965114	60.4
61.68843301631817	60.3
62.58571193631152	60.3
63.49604207872855	60.3
64.41961327797075	60.3
66.3072520307241	60.2
67.27171322029778	60.2
68.25020282090806	60.2
69.2429248804921	60.1
70.25008641493265	60.1
71.27189745122783	60.1
72.30857107128878	60.0
74.42737393217246	60.0
76.60826245588666	60.0
78.85305589121582	59.9
81.16362679500274	59.9
84.75704754874454	59.8
85.98986719365665	59.8
87.24061861322157	59.8
88.50956263110764	59.8
89.79696386475084	59.8
91.10309078053635	59.8
92.42821574978288	59.7
93.77261510554118	59.7
96.52036246404286	59.7
97.92428346437356	59.7
99.34862496587989	59.7
102.25976188483567	59.7
103.74716437208203	59.6
105.25620162669229	59.6
106.78718833360406	59.6
108.34044375495276	59.6
109.9162917966485	59.6
111.51506107592134	59.6
113.13708498984903	59.5
114.78270178488147	59.5
116.45225462737648	59.5
119.86456615013608	59.5
121.60803641193078	59.5
123.3768660326369	59.6
128.83922655594208	59.6
130.71323625928977	59.6
134.5434264405962	59.6
136.50040564181674	59.6
140.50017282986593	59.6
144.61714214257822	59.6
148.8547478643456	59.6
151.01989002907314	59.5
155.4451105845792	59.5
160.00000000000236	59.5
162.3272535900062	59.5
164.6883578629612	59.5
167.08380518838874	59.5
169.51409509748981	59.5
171.97973438731407	59.5
177.01912526221608	59.5
182.20618156107355	59.5
184.85643149956664	59.5
187.54523021108326	59.5
190.27313840043846	59.5
193.04072492808663	59.5
198.69724993176072	59.5
201.58736798318304	59.6
204.5195237696723	59.7
207.49432874416505	59.7
210.5124032533856	59.9
213.57437666720915	60.0
219.83258359329807	60.1
223.03012215184378	60.1
226.2741699796992	60.1
229.5654035697641	60.0
232.90450925475412	59.9
236.2921833503241	59.8
239.72913230027333	59.8
250.34284774524843	59.8
257.67845311188546	59.9
265.22900812289896	59.9
269.08685288119375	59.9
273.0008112836349	59.9
276.97169952197106	59.9
281.00034565973334	59.9
289.23428428515797	59.9
293.44129382550057	59.9
297.7094957286928	59.8
302.0397800581479	59.8
306.4330498235497	59.7
315.41222356486645	59.7
320.00000000000654	59.7
324.6545071800142	59.7
329.3767157259242	59.7
334.16761037677935	59.8
339.02819019498156	59.9
343.95946877463007	59.9
348.9624744528898	60.0
354.03825052443415	60.0
359.187855459007	60.0
364.4123631221491	60.0
375.0904604221685	60.0
380.54627680087896	60.0
386.08144985617537	60.0
391.6971338574982	60.0
397.3944998635236	60.0
403.1747359663683	60.0
421.0248065067734	60.2
439.6651671865984	60.4
459.13080713953053	60.3
465.8090185095106	60.3
472.58436670065066	60.3
479.45826460054917	60.3
486.432145647728	60.4
500.6856954904994	60.6
515.3569062237735	60.8
530.4580162458005	60.8
553.9433990439449	60.9
562.0006913194694	61.0
570.1751796098309	61.1
578.4685685703187	61.2
586.8825876510039	61.3
595.4189914573883	61.4
604.0795601162986	61.5
621.780442338323	61.6
640.0000000000159	61.6
649.3090143600314	61.7
658.7534314518515	61.7
668.3352207535618	61.7
678.0563803899662	61.7
708.0765010488715	61.9
728.8247262443015	62.0
761.0925536017613	62.0
783.3942677149998	62.2
794.7889997270506	62.2
806.34947193274	62.3
829.9773149766683	62.5
842.0496130135506	62.6
854.2975066688449	62.6
879.3303343732008	62.8
892.1204886073838	62.8
905.0966799188055	62.9
918.2616142790653	62.9
945.1687334013056	63.0
972.8642912954606	63.0
1001.3713909810035	63.0
1030.7138124475518	63.0
1060.916032491606	63.0
1092.0032451345498	63.0
1140.350359219667	63.0
1173.765175302013	63.0
1190.837982914782	63.1
1208.1591202326028	63.1
1243.5608846766518	63.1
1261.648894259477	63.1
1280.0000000000375	63.1
1298.6180287200684	63.2
1317.5068629037087	63.2
1336.6704415071292	63.3
1375.8378750985323	63.4
1416.153002097749	63.4
1436.7514218360407	63.3
1457.6494524886093	63.3
1478.8514519965543	63.4
1544.3257994247153	63.5
1589.5779994541087	63.4
1612.6989438654878	63.4
1636.156190157402	63.4
1708.5950133376978	63.5
1758.6606687464096	64.0
1784.2409772147755	64.3
1863.2360740380593	65.3
1917.833058402214	65.9
1974.0298565222283	66.6
2002.7427819620161	66.8
2061.4276248951132	67.5
2091.411780148677	67.8
2121.832064983222	68.2
2152.694823049581	68.5
2184.0064902691106	68.8
2248.002765277899	69.1
2280.7007184393456	69.3
2313.874274281297	69.4
2381.6759658295764	69.7
2416.318240465218	69.7
2451.4643985884327	69.7
2487.1217693533167	69.7
2523.2977885189675	69.7
2560.0000000000887	69.6
2597.236057440151	69.6
2635.0137258074315	69.5
2712.225521559891	69.4
2751.6757501970797	69.3
2791.699795623158	69.3
2915.2989049772345	69.7
3000.723683377391	70.0
3044.370214407075	70.1
3088.6515988494466	70.1
3133.57707086003	70.1
3225.3978877309914	70.0
3319.9092599067053	69.7
3368.198452054235	69.6
3517.3213374928373	69.4
3726.472148076138	67.3
3780.6749336052594	66.9
4182.823560297375	65.5
4305.389646099183	64.4
4368.012980538242	63.5
4431.5471923516225	62.5
4496.00553055582	61.5
4561.401436878714	60.6
4627.748548562617	60.3
4695.060701208099	60.3
4832.63648093046	60.2
4902.928797176889	59.6
4974.243538706657	58.9
5046.595577037959	58.3
5270.027451614888	58.7
5346.6817660285715	59.2
5424.451043119808	59.4
5503.351500394186	59.5
5583.399591246343	59.6
5747.005687344222	60.0
5830.597809954497	60.2
5915.405807986278	60.2
6001.447366754812	60.0
6088.740428814181	59.8
6267.154141720092	59.0
6358.3119978165005	58.4
6450.795775462017	57.6
6736.396904108505	54.7
6933.788400317181	52.2
7136.963908859177	51.0
7240.773439350552	52.0
7346.092914232631	53.2
7452.944296152315	54.0
7782.914330363799	56.0
7896.119426088994	56.6
8010.971127848146	57.4
8127.49338607753	58.1
8245.710499580537	58.8
8365.647120594791	59.2
8487.328259932974	59.5
8610.77929219841	59.8
8736.025961076528	60.1
8863.094384703289	60.6
8992.011061111683	61.3
9122.802873757471	62.1
9255.497097125279	63.0
9390.121402416245	63.9
9665.272961860968	65.1
9805.857594353829	65.3
10240.000000000457	63.9
10540.05490322983	62.5
10848.902086239672	61.5
11006.703000788428	61.1
11166.799182492743	60.6
11329.224016782166	60.1
11494.0113746885	59.3
11661.195619909053	58.6
11830.811615972614	57.8
12002.894733509682	57.3
12177.48085762842	56.8
12354.606395397908	56.5
12534.308283440243	56.2
12716.62399563306	56.1
12901.591550924093	56.4
13089.249521259411	57.1
13279.637039626952	58.1
13472.793808217073	59.3
13668.760106701786	60.4
13867.576800634426	61.2
14069.285349971487	61.8
9948.487077413367	65.1
14273.927817718419	62.2
14481.54687870117	62.5
14692.18582846533	62.5
14905.888592304698	62.6
15122.699734421185	62.6
15342.664467217943	62.8
15792.238852178061	62.8
16021.942255696367	62.5
16254.986772155136	61.7
16491.42099916115	60.3
16731.294241189662	58.0
16974.65651986603	55.0
17221.558584396902	51.7
17726.188769406665	51.0
17984.022122223458	53.0
18245.605747515034	54.3
18510.99419425065	54.6
18780.242804832582	54.0
19053.40772663689	52.6
19330.545923722028	50.6
19611.71518870775	48.3
19896.974154826825	46.1
20186.382308152035	45.3
10693.363532057198	61.9
10388.944229760706	63.2
10093.19115407597	64.6
9526.7038633184	64.7
6177.303197698925	59.4
7561.349867210557	54.7
6834.380053350861	53.6
